Sample	CET_SMPT_SAC_5
Comments	CET_SMPT_SAC_5
Filename	C:\WINDMAX\DATA\PERSON\CET_SMPT_SAC_5.raw
Goniometer	Ultima IV
Attachment	Standard Att.
Monochromater	Fixed Monochro.(U4)
ScanningMode	2Theta/Theta
ScanningType	Continuos Scanning
X-Ray	40kV/30mA
DivSlit	2/3 deg.
DivH.L.Slit	10mm
SctSlit	2/3 deg.
RecSlit	0.3mm
Monochro RS	No Use
K-beta filter	
Start	5
Stop	35
Step	0.02
Speed	1
Offset	0
5	53
5.02	66
5.04	60
5.06	50
5.08	53
5.1	60
5.12	59
5.14	62
5.16	66
5.18	69
5.2	56
5.22	49
5.24	54
5.26	70
5.28	73
5.3	57
5.32	58
5.34	52
5.36	61
5.38	51
5.4	59
5.42	49
5.44	54
5.46	51
5.48	63
5.5	50
5.52	61
5.54	52
5.56	59
5.58	60
5.6	62
5.62	42
5.64	47
5.66	53
5.68	63
5.7	54
5.72	56
5.74	68
5.76	54
5.78	55
5.8	43
5.82	62
5.84	61
5.86	67
5.88	52
5.9	46
5.92	55
5.94	57
5.96	61
5.98	63
6	65
6.02	64
6.04	65
6.06	74
6.08	56
6.1	80
6.12	73
6.14	94
6.16	134
6.18	125
6.2	130
6.22	98
6.24	93
6.26	64
6.28	64
6.3	65
6.32	58
6.34	45
6.36	43
6.38	62
6.4	53
6.42	57
6.44	60
6.46	59
6.48	58
6.5	61
6.52	59
6.54	81
6.56	64
6.58	64
6.6	70
6.62	78
6.64	66
6.66	80
6.68	58
6.7	56
6.72	48
6.74	57
6.76	56
6.78	64
6.8	51
6.82	45
6.84	53
6.86	52
6.88	55
6.9	52
6.92	50
6.94	59
6.96	42
6.98	51
7	49
7.02	53
7.04	42
7.06	54
7.08	46
7.1	43
7.12	41
7.14	35
7.16	42
7.18	35
7.2	58
7.22	40
7.24	55
7.26	37
7.28	54
7.3	39
7.32	43
7.34	38
7.36	36
7.38	51
7.4	53
7.42	40
7.44	41
7.46	42
7.48	41
7.5	53
7.52	45
7.54	48
7.56	52
7.58	41
7.6	51
7.62	46
7.64	40
7.66	42
7.68	35
7.7	46
7.72	50
7.74	41
7.76	54
7.78	40
7.8	36
7.82	39
7.84	44
7.86	49
7.88	35
7.9	47
7.92	50
7.94	60
7.96	41
7.98	52
8	55
8.02	47
8.04	47
8.06	49
8.08	46
8.1	46
8.12	65
8.14	36
8.16	52
8.18	37
8.2	36
8.22	47
8.24	43
8.26	44
8.28	45
8.3	35
8.32	39
8.34	43
8.36	44
8.38	42
8.4	37
8.42	47
8.44	50
8.46	46
8.48	39
8.5	54
8.52	54
8.54	50
8.56	50
8.58	47
8.6	38
8.62	42
8.64	47
8.66	52
8.68	48
8.7	52
8.72	42
8.74	40
8.76	41
8.78	46
8.8	48
8.82	37
8.84	42
8.86	43
8.88	40
8.9	47
8.92	41
8.94	40
8.96	29
8.98	45
9	42
9.02	46
9.04	53
9.06	52
9.08	34
9.1	49
9.12	51
9.14	45
9.16	62
9.18	52
9.2	47
9.22	51
9.24	58
9.26	42
9.28	33
9.3	40
9.32	45
9.34	44
9.36	52
9.38	48
9.4	47
9.42	54
9.44	60
9.46	48
9.48	59
9.5	67
9.52	53
9.54	61
9.56	37
9.58	59
9.6	53
9.62	58
9.64	56
9.66	57
9.68	67
9.7	67
9.72	96
9.74	119
9.76	113
9.78	82
9.8	63
9.82	53
9.84	53
9.86	53
9.88	53
9.9	50
9.92	35
9.94	43
9.96	44
9.98	41
10	42
10.02	38
10.04	61
10.06	61
10.08	44
10.1	38
10.12	48
10.14	46
10.16	52
10.18	40
10.2	49
10.22	51
10.24	43
10.26	41
10.28	40
10.3	43
10.32	42
10.34	40
10.36	54
10.38	36
10.4	38
10.42	46
10.44	47
10.46	51
10.48	51
10.5	44
10.52	43
10.54	45
10.56	46
10.58	56
10.6	42
10.62	46
10.64	47
10.66	33
10.68	39
10.7	38
10.72	48
10.74	59
10.76	46
10.78	43
10.8	39
10.82	59
10.84	43
10.86	50
10.88	55
10.9	43
10.92	46
10.94	43
10.96	40
10.98	52
11	47
11.02	58
11.04	51
11.06	32
11.08	55
11.1	40
11.12	40
11.14	59
11.16	48
11.18	50
11.2	47
11.22	40
11.24	46
11.26	41
11.28	43
11.3	41
11.32	40
11.34	33
11.36	64
11.38	56
11.4	50
11.42	44
11.44	49
11.46	53
11.48	51
11.5	49
11.52	44
11.54	42
11.56	45
11.58	56
11.6	52
11.62	40
11.64	38
11.66	49
11.68	55
11.7	39
11.72	37
11.74	65
11.76	38
11.78	43
11.8	45
11.82	35
11.84	61
11.86	48
11.88	47
11.9	54
11.92	52
11.94	50
11.96	45
11.98	50
12	44
12.02	41
12.04	55
12.06	51
12.08	54
12.1	50
12.12	48
12.14	44
12.16	50
12.18	52
12.2	51
12.22	60
12.24	40
12.26	50
12.28	57
12.3	54
12.32	41
12.34	53
12.36	56
12.38	63
12.4	46
12.42	55
12.44	51
12.46	64
12.48	37
12.5	45
12.52	40
12.54	51
12.56	55
12.58	51
12.6	51
12.62	53
12.64	55
12.66	54
12.68	53
12.7	54
12.72	73
12.74	52
12.76	57
12.78	61
12.8	41
12.82	47
12.84	52
12.86	56
12.88	68
12.9	55
12.92	59
12.94	56
12.96	39
12.98	55
13	60
13.02	70
13.04	60
13.06	53
13.08	52
13.1	58
13.12	59
13.14	57
13.16	51
13.18	45
13.2	64
13.22	55
13.24	54
13.26	47
13.28	70
13.3	71
13.32	53
13.34	51
13.36	69
13.38	58
13.4	58
13.42	56
13.44	72
13.46	57
13.48	56
13.5	68
13.52	64
13.54	55
13.56	54
13.58	50
13.6	49
13.62	50
13.64	67
13.66	55
13.68	51
13.7	66
13.72	54
13.74	50
13.76	50
13.78	50
13.8	47
13.82	45
13.84	43
13.86	54
13.88	58
13.9	47
13.92	63
13.94	63
13.96	44
13.98	49
14	53
14.02	61
14.04	57
14.06	47
14.08	49
14.1	64
14.12	49
14.14	51
14.16	54
14.18	47
14.2	54
14.22	62
14.24	69
14.26	53
14.28	70
14.3	49
14.32	64
14.34	62
14.36	52
14.38	46
14.4	56
14.42	84
14.44	56
14.46	61
14.48	58
14.5	65
14.52	60
14.54	62
14.56	70
14.58	73
14.6	83
14.62	96
14.64	60
14.66	72
14.68	76
14.7	88
14.72	72
14.74	72
14.76	88
14.78	76
14.8	72
14.82	68
14.84	59
14.86	70
14.88	73
14.9	71
14.92	60
14.94	81
14.96	103
14.98	78
15	95
15.02	74
15.04	81
15.06	82
15.08	126
15.1	105
15.12	122
15.14	118
15.16	135
15.18	145
15.2	121
15.22	114
15.24	107
15.26	88
15.28	111
15.3	90
15.32	77
15.34	80
15.36	94
15.38	63
15.4	66
15.42	66
15.44	71
15.46	68
15.48	73
15.5	89
15.52	76
15.54	115
15.56	131
15.58	76
15.6	75
15.62	74
15.64	114
15.66	107
15.68	106
15.7	94
15.72	85
15.74	76
15.76	76
15.78	86
15.8	68
15.82	62
15.84	94
15.86	79
15.88	75
15.9	91
15.92	108
15.94	149
15.96	202
15.98	284
16	353
16.02	365
16.04	307
16.06	286
16.08	356
16.1	465
16.12	624
16.14	658
16.16	658
16.18	816
16.2	887
16.22	927
16.24	716
16.26	514
16.28	320
16.3	217
16.32	160
16.34	133
16.36	164
16.38	179
16.4	345
16.42	1304
16.44	2850
16.46	3848
16.48	3704
16.5	2436
16.52	1417
16.54	550
16.56	172
16.58	138
16.6	118
16.62	91
16.64	99
16.66	106
16.68	97
16.7	86
16.72	79
16.74	71
16.76	85
16.78	69
16.8	78
16.82	70
16.84	73
16.86	87
16.88	72
16.9	85
16.92	74
16.94	72
16.96	75
16.98	83
17	71
17.02	92
17.04	82
17.06	87
17.08	73
17.1	101
17.12	89
17.14	92
17.16	58
17.18	94
17.2	83
17.22	93
17.24	67
17.26	93
17.28	86
17.3	85
17.32	87
17.34	67
17.36	90
17.38	88
17.4	92
17.42	99
17.44	94
17.46	105
17.48	100
17.5	88
17.52	96
17.54	100
17.56	72
17.58	86
17.6	98
17.62	82
17.64	108
17.66	90
17.68	75
17.7	92
17.72	75
17.74	80
17.76	77
17.78	83
17.8	94
17.82	74
17.84	89
17.86	72
17.88	83
17.9	71
17.92	80
17.94	66
17.96	95
17.98	88
18	76
18.02	76
18.04	76
18.06	74
18.08	83
18.1	90
18.12	103
18.14	80
18.16	116
18.18	91
18.2	88
18.22	87
18.24	92
18.26	78
18.28	103
18.3	100
18.32	106
18.34	102
18.36	122
18.38	110
18.4	111
18.42	135
18.44	136
18.46	125
18.48	130
18.5	148
18.52	134
18.54	156
18.56	154
18.58	143
18.6	153
18.62	128
18.64	139
18.66	133
18.68	153
18.7	136
18.72	139
18.74	133
18.76	130
18.78	127
18.8	150
18.82	137
18.84	149
18.86	131
18.88	136
18.9	179
18.92	247
18.94	350
18.96	427
18.98	450
19	359
19.02	301
19.04	210
19.06	159
19.08	141
19.1	146
19.12	180
19.14	192
19.16	203
19.18	204
19.2	223
19.22	257
19.24	336
19.26	469
19.28	551
19.3	551
19.32	504
19.34	389
19.36	284
19.38	223
19.4	181
19.42	165
19.44	139
19.46	140
19.48	131
19.5	123
19.52	96
19.54	122
19.56	121
19.58	108
19.6	109
19.62	110
19.64	90
19.66	94
19.68	93
19.7	98
19.72	115
19.74	114
19.76	92
19.78	98
19.8	114
19.82	108
19.84	110
19.86	106
19.88	113
19.9	116
19.92	135
19.94	147
19.96	254
19.98	279
20	223
20.02	222
20.04	283
20.06	211
20.08	162
20.1	166
20.12	187
20.14	182
20.16	154
20.18	198
20.2	202
20.22	289
20.24	408
20.26	512
20.28	569
20.3	463
20.32	389
20.34	286
20.36	200
20.38	168
20.4	114
20.42	138
20.44	138
20.46	129
20.48	130
20.5	104
20.52	116
20.54	99
20.56	120
20.58	115
20.6	102
20.62	107
20.64	99
20.66	102
20.68	94
20.7	116
20.72	102
20.74	107
20.76	111
20.78	114
20.8	107
20.82	109
20.84	114
20.86	96
20.88	92
20.9	99
20.92	115
20.94	110
20.96	115
20.98	89
21	94
21.02	90
21.04	126
21.06	99
21.08	112
21.1	96
21.12	107
21.14	124
21.16	116
21.18	123
21.2	123
21.22	108
21.24	109
21.26	128
21.28	125
21.3	97
21.32	113
21.34	140
21.36	131
21.38	119
21.4	125
21.42	153
21.44	167
21.46	209
21.48	157
21.5	210
21.52	209
21.54	205
21.56	217
21.58	258
21.6	275
21.62	260
21.64	260
21.66	214
21.68	197
21.7	168
21.72	179
21.74	217
21.76	189
21.78	243
21.8	399
21.82	1115
21.84	2004
21.86	1938
21.88	1414
21.9	1151
21.92	886
21.94	347
21.96	204
21.98	157
22	155
22.02	128
22.04	133
22.06	128
22.08	159
22.1	135
22.12	106
22.14	123
22.16	135
22.18	120
22.2	102
22.22	118
22.24	111
22.26	130
22.28	118
22.3	109
22.32	118
22.34	126
22.36	128
22.38	134
22.4	144
22.42	153
22.44	174
22.46	132
22.48	135
22.5	126
22.52	120
22.54	147
22.56	135
22.58	155
22.6	147
22.62	149
22.64	170
22.66	218
22.68	243
22.7	247
22.72	240
22.74	267
22.76	302
22.78	400
22.8	455
22.82	462
22.84	431
22.86	435
22.88	410
22.9	327
22.92	294
22.94	335
22.96	388
22.98	455
23	543
23.02	514
23.04	457
23.06	429
23.08	382
23.1	287
23.12	243
23.14	210
23.16	196
23.18	210
23.2	181
23.22	159
23.24	161
23.26	152
23.28	157
23.3	162
23.32	150
23.34	137
23.36	136
23.38	108
23.4	124
23.42	152
23.44	132
23.46	117
23.48	142
23.5	118
23.52	146
23.54	131
23.56	109
23.58	126
23.6	130
23.62	122
23.64	129
23.66	145
23.68	130
23.7	128
23.72	143
23.74	159
23.76	181
23.78	182
23.8	232
23.82	223
23.84	266
23.86	301
23.88	305
23.9	386
23.92	342
23.94	321
23.96	275
23.98	284
24	256
24.02	226
24.04	280
24.06	370
24.08	468
24.1	430
24.12	325
24.14	345
24.16	275
24.18	213
24.2	200
24.22	142
24.24	120
24.26	138
24.28	113
24.3	104
24.32	118
24.34	111
24.36	109
24.38	96
24.4	96
24.42	98
24.44	112
24.46	105
24.48	102
24.5	109
24.52	114
24.54	114
24.56	116
24.58	105
24.6	113
24.62	113
24.64	97
24.66	85
24.68	93
24.7	105
24.72	105
24.74	97
24.76	105
24.78	113
24.8	93
24.82	121
24.84	112
24.86	103
24.88	102
24.9	108
24.92	140
24.94	133
24.96	123
24.98	146
25	139
25.02	147
25.04	170
25.06	186
25.08	191
25.1	245
25.12	233
25.14	237
25.16	238
25.18	306
25.2	403
25.22	483
25.24	624
25.26	1091
25.28	1490
25.3	1455
25.32	1315
25.34	987
25.36	916
25.38	739
25.4	425
25.42	275
25.44	257
25.46	196
25.48	178
25.5	133
25.52	139
25.54	128
25.56	135
25.58	121
25.6	118
25.62	128
25.64	129
25.66	155
25.68	180
25.7	207
25.72	293
25.74	359
25.76	343
25.78	275
25.8	248
25.82	256
25.84	211
25.86	142
25.88	128
25.9	119
25.92	185
25.94	228
25.96	222
25.98	193
26	191
26.02	163
26.04	182
26.06	149
26.08	140
26.1	111
26.12	135
26.14	134
26.16	143
26.18	113
26.2	139
26.22	133
26.24	104
26.26	99
26.28	109
26.3	133
26.32	110
26.34	129
26.36	120
26.38	106
26.4	113
26.42	106
26.44	109
26.46	119
26.48	96
26.5	87
26.52	88
26.54	117
26.56	115
26.58	117
26.6	110
26.62	97
26.64	110
26.66	102
26.68	83
26.7	86
26.72	91
26.74	110
26.76	110
26.78	101
26.8	112
26.82	114
26.84	106
26.86	130
26.88	119
26.9	105
26.92	134
26.94	113
26.96	106
26.98	91
27	117
27.02	100
27.04	111
27.06	128
27.08	108
27.1	111
27.12	103
27.14	119
27.16	89
27.18	84
27.2	110
27.22	97
27.24	120
27.26	112
27.28	100
27.3	110
27.32	141
27.34	132
27.36	156
27.38	169
27.4	148
27.42	184
27.44	173
27.46	144
27.48	165
27.5	205
27.52	278
27.54	204
27.56	160
27.58	199
27.6	235
27.62	237
27.64	216
27.66	178
27.68	133
27.7	161
27.72	145
27.74	124
27.76	142
27.78	145
27.8	140
27.82	143
27.84	128
27.86	154
27.88	125
27.9	143
27.92	205
27.94	287
27.96	247
27.98	171
28	228
28.02	215
28.04	161
28.06	149
28.08	178
28.1	149
28.12	140
28.14	139
28.16	117
28.18	127
28.2	120
28.22	110
28.24	127
28.26	138
28.28	127
28.3	110
28.32	97
28.34	137
28.36	106
28.38	99
28.4	114
28.42	98
28.44	104
28.46	103
28.48	108
28.5	106
28.52	105
28.54	104
28.56	117
28.58	109
28.6	121
28.62	131
28.64	103
28.66	91
28.68	105
28.7	87
28.72	102
28.74	105
28.76	95
28.78	100
28.8	90
28.82	107
28.84	92
28.86	96
28.88	95
28.9	108
28.92	107
28.94	91
28.96	105
28.98	152
29	143
29.02	119
29.04	129
29.06	95
29.08	122
29.1	108
29.12	93
29.14	99
29.16	101
29.18	94
29.2	108
29.22	105
29.24	121
29.26	93
29.28	110
29.3	104
29.32	95
29.34	114
29.36	105
29.38	111
29.4	128
29.42	136
29.44	133
29.46	133
29.48	130
29.5	130
29.52	146
29.54	129
29.56	129
29.58	106
29.6	126
29.62	113
29.64	134
29.66	138
29.68	105
29.7	115
29.72	123
29.74	111
29.76	100
29.78	94
29.8	101
29.82	113
29.84	84
29.86	75
29.88	98
29.9	81
29.92	72
29.94	89
29.96	74
29.98	89
30	84
30.02	76
30.04	69
30.06	86
30.08	76
30.1	83
30.12	74
30.14	72
30.16	88
30.18	80
30.2	79
30.22	83
30.24	92
30.26	102
30.28	104
30.3	89
30.32	83
30.34	103
30.36	95
30.38	103
30.4	100
30.42	108
30.44	123
30.46	144
30.48	250
30.5	436
30.52	444
30.54	272
30.56	313
30.58	321
30.6	294
30.62	189
30.64	181
30.66	143
30.68	118
30.7	123
30.72	116
30.74	103
30.76	110
30.78	91
30.8	93
30.82	106
30.84	112
30.86	125
30.88	163
30.9	136
30.92	164
30.94	116
30.96	136
30.98	144
31	131
31.02	110
31.04	113
31.06	130
31.08	105
31.1	116
31.12	89
31.14	103
31.16	109
31.18	93
31.2	90
31.22	73
31.24	88
31.26	84
31.28	89
31.3	73
31.32	60
31.34	82
31.36	79
31.38	64
31.4	91
31.42	85
31.44	89
31.46	88
31.48	87
31.5	81
31.52	70
31.54	76
31.56	86
31.58	90
31.6	81
31.62	79
31.64	79
31.66	85
31.68	116
31.7	140
31.72	164
31.74	166
31.76	154
31.78	121
31.8	131
31.82	114
31.84	115
31.86	101
31.88	86
31.9	75
31.92	79
31.94	67
31.96	81
31.98	103
32	98
32.02	97
32.04	105
32.06	95
32.08	84
32.1	104
32.12	108
32.14	83
32.16	101
32.18	84
32.2	97
32.22	121
32.24	168
32.26	217
32.28	275
32.3	258
32.32	259
32.34	199
32.36	171
32.38	225
32.4	183
32.42	130
32.44	111
32.46	97
32.48	111
32.5	102
32.52	102
32.54	98
32.56	80
32.58	77
32.6	83
32.62	92
32.64	71
32.66	81
32.68	84
32.7	87
32.72	75
32.74	76
32.76	90
32.78	87
32.8	80
32.82	67
32.84	74
32.86	83
32.88	70
32.9	92
32.92	74
32.94	71
32.96	82
32.98	77
33	87
33.02	73
33.04	69
33.06	59
33.08	79
33.1	57
33.12	62
33.14	66
33.16	81
33.18	80
33.2	63
33.22	69
33.24	78
33.26	78
33.28	79
33.3	60
33.32	83
33.34	75
33.36	73
33.38	65
33.4	71
33.42	71
33.44	56
33.46	81
33.48	76
33.5	65
33.52	68
33.54	78
33.56	94
33.58	85
33.6	91
33.62	99
33.64	95
33.66	111
33.68	76
33.7	106
33.72	102
33.74	112
33.76	98
33.78	88
33.8	87
33.82	92
33.84	129
33.86	207
33.88	318
33.9	352
33.92	241
33.94	197
33.96	219
33.98	237
34	166
34.02	111
34.04	130
34.06	95
34.08	93
34.1	88
34.12	90
34.14	76
34.16	86
34.18	80
34.2	85
34.22	87
34.24	105
34.26	95
34.28	82
34.3	99
34.32	108
34.34	105
34.36	95
34.38	114
34.4	118
34.42	137
34.44	127
34.46	137
34.48	100
34.5	120
34.52	125
34.54	135
34.56	173
34.58	147
34.6	131
34.62	124
34.64	99
34.66	100
34.68	99
34.7	70
34.72	67
34.74	85
34.76	85
34.78	87
34.8	84
34.82	87
34.84	70
34.86	78
34.88	83
34.9	79
34.92	100
34.94	71
34.96	82
34.98	71
35	79
