Sample	CETOMP_3meses
Comments	CETOMP_3meses
Filename	C:\Windmax\Data\Olimpia\CETOMP_3meses.raw
Goniometer	Ultima IV
Attachment	Standard Att.
Monochromater	Fixed Monochro.(U4)
ScanningMode	2Theta/Theta
ScanningType	Continuos Scanning
X-Ray	40kV/30mA
DivSlit	2/3 deg.
DivH.L.Slit	10mm
SctSlit	2/3 deg.
RecSlit	0.3mm
Monochro RS	No Use
K-beta filter	
Start	5
Stop	35
Step	0.02
Speed	1
Offset	0
5	99
5.02	87
5.04	85
5.06	75
5.08	112
5.1	77
5.12	106
5.14	84
5.16	101
5.18	97
5.2	93
5.22	96
5.24	82
5.26	98
5.28	85
5.3	99
5.32	94
5.34	89
5.36	92
5.38	99
5.4	93
5.42	97
5.44	97
5.46	98
5.48	85
5.5	90
5.52	78
5.54	105
5.56	93
5.58	89
5.6	111
5.62	78
5.64	80
5.66	108
5.68	109
5.7	87
5.72	101
5.74	96
5.76	99
5.78	106
5.8	108
5.82	101
5.84	119
5.86	117
5.88	120
5.9	118
5.92	147
5.94	129
5.96	174
5.98	175
6	179
6.02	194
6.04	192
6.06	203
6.08	269
6.1	312
6.12	343
6.14	359
6.16	417
6.18	527
6.2	558
6.22	634
6.24	657
6.26	624
6.28	621
6.3	518
6.32	385
6.34	284
6.36	204
6.38	152
6.4	106
6.42	94
6.44	81
6.46	99
6.48	86
6.5	80
6.52	76
6.54	70
6.56	69
6.58	70
6.6	83
6.62	82
6.64	75
6.66	74
6.68	71
6.7	61
6.72	53
6.74	71
6.76	81
6.78	73
6.8	84
6.82	72
6.84	61
6.86	74
6.88	79
6.9	69
6.92	69
6.94	54
6.96	75
6.98	74
7	75
7.02	85
7.04	74
7.06	84
7.08	71
7.1	74
7.12	59
7.14	88
7.16	68
7.18	77
7.2	73
7.22	80
7.24	66
7.26	71
7.28	53
7.3	61
7.32	61
7.34	58
7.36	63
7.38	65
7.4	74
7.42	71
7.44	75
7.46	73
7.48	58
7.5	57
7.52	78
7.54	61
7.56	74
7.58	61
7.6	60
7.62	49
7.64	74
7.66	74
7.68	73
7.7	79
7.72	54
7.74	74
7.76	54
7.78	79
7.8	53
7.82	76
7.84	61
7.86	72
7.88	55
7.9	76
7.92	56
7.94	81
7.96	80
7.98	56
8	61
8.02	62
8.04	66
8.06	55
8.08	53
8.1	62
8.12	59
8.14	50
8.16	70
8.18	70
8.2	63
8.22	69
8.24	49
8.26	61
8.28	54
8.3	68
8.32	58
8.34	65
8.36	56
8.38	66
8.4	71
8.42	54
8.44	66
8.46	58
8.48	68
8.5	65
8.52	66
8.54	59
8.56	60
8.58	60
8.6	58
8.62	64
8.64	58
8.66	79
8.68	73
8.7	65
8.72	61
8.74	64
8.76	69
8.78	62
8.8	58
8.82	65
8.84	66
8.86	54
8.88	54
8.9	74
8.92	58
8.94	61
8.96	64
8.98	56
9	68
9.02	60
9.04	62
9.06	69
9.08	59
9.1	59
9.12	55
9.14	71
9.16	60
9.18	70
9.2	72
9.22	58
9.24	52
9.26	64
9.28	61
9.3	48
9.32	64
9.34	55
9.36	65
9.38	64
9.4	52
9.42	72
9.44	64
9.46	62
9.48	61
9.5	67
9.52	67
9.54	66
9.56	65
9.58	57
9.6	65
9.62	50
9.64	66
9.66	60
9.68	61
9.7	70
9.72	68
9.74	60
9.76	70
9.78	60
9.8	63
9.82	70
9.84	58
9.86	57
9.88	58
9.9	65
9.92	68
9.94	68
9.96	61
9.98	60
10	72
10.02	57
10.04	60
10.06	83
10.08	66
10.1	55
10.12	54
10.14	59
10.16	59
10.18	73
10.2	75
10.22	77
10.24	64
10.26	73
10.28	60
10.3	49
10.32	53
10.34	85
10.36	47
10.38	61
10.4	73
10.42	63
10.44	64
10.46	55
10.48	77
10.5	56
10.52	55
10.54	54
10.56	59
10.58	64
10.6	83
10.62	68
10.64	59
10.66	55
10.68	50
10.7	72
10.72	74
10.74	53
10.76	64
10.78	48
10.8	51
10.82	61
10.84	57
10.86	61
10.88	59
10.9	63
10.92	52
10.94	71
10.96	73
10.98	64
11	58
11.02	73
11.04	63
11.06	49
11.08	68
11.1	81
11.12	69
11.14	62
11.16	77
11.18	74
11.2	79
11.22	73
11.24	71
11.26	65
11.28	70
11.3	75
11.32	82
11.34	78
11.36	91
11.38	51
11.4	69
11.42	78
11.44	57
11.46	71
11.48	71
11.5	66
11.52	62
11.54	73
11.56	66
11.58	72
11.6	74
11.62	65
11.64	74
11.66	68
11.68	63
11.7	48
11.72	62
11.74	59
11.76	68
11.78	59
11.8	70
11.82	74
11.84	67
11.86	65
11.88	79
11.9	56
11.92	70
11.94	71
11.96	74
11.98	71
12	65
12.02	75
12.04	65
12.06	58
12.08	61
12.1	69
12.12	82
12.14	59
12.16	70
12.18	62
12.2	68
12.22	58
12.24	65
12.26	67
12.28	68
12.3	53
12.32	79
12.34	69
12.36	72
12.38	67
12.4	68
12.42	65
12.44	71
12.46	69
12.48	63
12.5	71
12.52	71
12.54	77
12.56	79
12.58	73
12.6	59
12.62	65
12.64	82
12.66	86
12.68	84
12.7	92
12.72	111
12.74	119
12.76	123
12.78	112
12.8	139
12.82	147
12.84	165
12.86	151
12.88	191
12.9	208
12.92	233
12.94	242
12.96	284
12.98	329
13	390
13.02	411
13.04	466
13.06	464
13.08	411
13.1	402
13.12	362
13.14	316
13.16	206
13.18	161
13.2	148
13.22	136
13.24	100
13.26	90
13.28	79
13.3	80
13.32	69
13.34	82
13.36	70
13.38	80
13.4	69
13.42	72
13.44	82
13.46	73
13.48	66
13.5	73
13.52	71
13.54	67
13.56	73
13.58	83
13.6	83
13.62	60
13.64	80
13.66	75
13.68	63
13.7	83
13.72	66
13.74	62
13.76	67
13.78	52
13.8	71
13.82	75
13.84	80
13.86	96
13.88	73
13.9	92
13.92	81
13.94	83
13.96	88
13.98	112
14	108
14.02	116
14.04	116
14.06	132
14.08	163
14.1	207
14.12	227
14.14	302
14.16	363
14.18	449
14.2	600
14.22	724
14.24	932
14.26	1013
14.28	1078
14.3	1171
14.32	1109
14.34	980
14.36	899
14.38	775
14.4	573
14.42	434
14.44	308
14.46	226
14.48	168
14.5	143
14.52	141
14.54	101
14.56	99
14.58	81
14.6	90
14.62	85
14.64	86
14.66	88
14.68	92
14.7	79
14.72	73
14.74	88
14.76	82
14.78	88
14.8	73
14.82	86
14.84	77
14.86	78
14.88	92
14.9	69
14.92	73
14.94	78
14.96	84
14.98	77
15	65
15.02	75
15.04	82
15.06	79
15.08	90
15.1	98
15.12	98
15.14	88
15.16	106
15.18	90
15.2	78
15.22	93
15.24	91
15.26	92
15.28	72
15.3	84
15.32	78
15.34	98
15.36	75
15.38	81
15.4	84
15.42	94
15.44	69
15.46	89
15.48	78
15.5	87
15.52	92
15.54	83
15.56	85
15.58	78
15.6	70
15.62	79
15.64	82
15.66	75
15.68	76
15.7	94
15.72	73
15.74	95
15.76	87
15.78	83
15.8	84
15.82	95
15.84	87
15.86	86
15.88	101
15.9	108
15.92	94
15.94	111
15.96	102
15.98	114
16	123
16.02	127
16.04	157
16.06	181
16.08	190
16.1	200
16.12	183
16.14	194
16.16	201
16.18	168
16.2	160
16.22	146
16.24	129
16.26	114
16.28	122
16.3	111
16.32	80
16.34	94
16.36	107
16.38	98
16.4	105
16.42	85
16.44	94
16.46	107
16.48	92
16.5	91
16.52	88
16.54	105
16.56	120
16.58	100
16.6	115
16.62	113
16.64	136
16.66	139
16.68	125
16.7	127
16.72	155
16.74	185
16.76	222
16.78	271
16.8	249
16.82	278
16.84	265
16.86	231
16.88	215
16.9	209
16.92	162
16.94	171
16.96	161
16.98	137
17	156
17.02	168
17.04	181
17.06	194
17.08	234
17.1	291
17.12	361
17.14	400
17.16	515
17.18	551
17.2	569
17.22	568
17.24	526
17.26	469
17.28	423
17.3	350
17.32	320
17.34	232
17.36	213
17.38	165
17.4	131
17.42	145
17.44	115
17.46	134
17.48	115
17.5	93
17.52	98
17.54	97
17.56	93
17.58	97
17.6	111
17.62	100
17.64	134
17.66	104
17.68	130
17.7	135
17.72	126
17.74	119
17.76	132
17.78	115
17.8	110
17.82	139
17.84	132
17.86	135
17.88	145
17.9	158
17.92	172
17.94	197
17.96	214
17.98	264
18	332
18.02	353
18.04	429
18.06	477
18.08	586
18.1	638
18.12	773
18.14	926
18.16	1000
18.18	1194
18.2	1298
18.22	1521
18.24	1651
18.26	1797
18.28	1876
18.3	1991
18.32	2027
18.34	2018
18.36	1870
18.38	1669
18.4	1533
18.42	1357
18.44	1129
18.46	971
18.48	751
18.5	592
18.52	455
18.54	362
18.56	291
18.58	230
18.6	191
18.62	188
18.64	177
18.66	144
18.68	141
18.7	127
18.72	140
18.74	131
18.76	125
18.78	143
18.8	124
18.82	144
18.84	140
18.86	152
18.88	185
18.9	174
18.92	219
18.94	197
18.96	259
18.98	253
19	258
19.02	256
19.04	259
19.06	251
19.08	227
19.1	241
19.12	235
19.14	189
19.16	183
19.18	177
19.2	161
19.22	153
19.24	137
19.26	150
19.28	143
19.3	143
19.32	130
19.34	126
19.36	125
19.38	149
19.4	151
19.42	138
19.44	142
19.46	128
19.48	144
19.5	149
19.52	181
19.54	185
19.56	214
19.58	184
19.6	200
19.62	163
19.64	215
19.66	211
19.68	214
19.7	193
19.72	234
19.74	220
19.76	218
19.78	250
19.8	270
19.82	321
19.84	350
19.86	405
19.88	470
19.9	458
19.92	475
19.94	571
19.96	513
19.98	522
20	484
20.02	445
20.04	407
20.06	345
20.08	301
20.1	249
20.12	228
20.14	220
20.16	193
20.18	170
20.2	193
20.22	162
20.24	150
20.26	155
20.28	159
20.3	155
20.32	150
20.34	149
20.36	153
20.38	140
20.4	151
20.42	162
20.44	128
20.46	158
20.48	141
20.5	164
20.52	137
20.54	160
20.56	176
20.58	167
20.6	144
20.62	124
20.64	155
20.66	159
20.68	151
20.7	152
20.72	162
20.74	150
20.76	161
20.78	152
20.8	137
20.82	150
20.84	150
20.86	149
20.88	148
20.9	128
20.92	160
20.94	137
20.96	169
20.98	139
21	146
21.02	167
21.04	153
21.06	141
21.08	138
21.1	135
21.12	145
21.14	169
21.16	161
21.18	159
21.2	145
21.22	165
21.24	150
21.26	142
21.28	188
21.3	173
21.32	151
21.34	176
21.36	182
21.38	190
21.4	185
21.42	187
21.44	194
21.46	237
21.48	257
21.5	288
21.52	326
21.54	351
21.56	428
21.58	400
21.6	440
21.62	471
21.64	400
21.66	394
21.68	384
21.7	367
21.72	337
21.74	317
21.76	310
21.78	239
21.8	270
21.82	274
21.84	275
21.86	253
21.88	269
21.9	224
21.92	242
21.94	227
21.96	259
21.98	226
22	264
22.02	228
22.04	220
22.06	235
22.08	211
22.1	241
22.12	202
22.14	212
22.16	206
22.18	209
22.2	197
22.22	195
22.24	218
22.26	222
22.28	216
22.3	265
22.32	274
22.34	279
22.36	357
22.38	403
22.4	490
22.42	592
22.44	634
22.46	737
22.48	813
22.5	887
22.52	877
22.54	867
22.56	911
22.58	881
22.6	903
22.62	887
22.64	1075
22.66	1183
22.68	1334
22.7	1472
22.72	1771
22.74	1905
22.76	2124
22.78	2162
22.8	2260
22.82	2301
22.84	2229
22.86	1967
22.88	1843
22.9	1612
22.92	1413
22.94	1101
22.96	953
22.98	774
23	722
23.02	658
23.04	537
23.06	489
23.08	502
23.1	430
23.12	441
23.14	398
23.16	435
23.18	416
23.2	385
23.22	357
23.24	373
23.26	370
23.28	320
23.3	317
23.32	278
23.34	313
23.36	264
23.38	263
23.4	239
23.42	267
23.44	252
23.46	248
23.48	252
23.5	290
23.52	280
23.54	295
23.56	270
23.58	313
23.6	291
23.62	375
23.64	375
23.66	408
23.68	459
23.7	519
23.72	585
23.74	627
23.76	646
23.78	673
23.8	735
23.82	850
23.84	778
23.86	748
23.88	734
23.9	682
23.92	660
23.94	565
23.96	514
23.98	425
24	338
24.02	287
24.04	239
24.06	259
24.08	240
24.1	214
24.12	202
24.14	161
24.16	192
24.18	178
24.2	190
24.22	196
24.24	163
24.26	162
24.28	169
24.3	176
24.32	158
24.34	171
24.36	200
24.38	194
24.4	145
24.42	168
24.44	195
24.46	178
24.48	160
24.5	155
24.52	170
24.54	159
24.56	174
24.58	187
24.6	170
24.62	173
24.64	174
24.66	186
24.68	177
24.7	171
24.72	160
24.74	166
24.76	155
24.78	169
24.8	165
24.82	169
24.84	146
24.86	181
24.88	177
24.9	172
24.92	171
24.94	155
24.96	153
24.98	152
25	159
25.02	144
25.04	173
25.06	161
25.08	177
25.1	188
25.12	187
25.14	177
25.16	173
25.18	165
25.2	172
25.22	174
25.24	169
25.26	176
25.28	159
25.3	163
25.32	154
25.34	166
25.36	165
25.38	137
25.4	176
25.42	176
25.44	192
25.46	187
25.48	186
25.5	209
25.52	224
25.54	220
25.56	223
25.58	240
25.6	246
25.62	286
25.64	277
25.66	246
25.68	267
25.7	258
25.72	262
25.74	288
25.76	307
25.78	276
25.8	320
25.82	358
25.84	385
25.86	387
25.88	411
25.9	468
25.92	505
25.94	432
25.96	455
25.98	454
26	416
26.02	392
26.04	344
26.06	312
26.08	271
26.1	258
26.12	215
26.14	199
26.16	188
26.18	194
26.2	190
26.22	174
26.24	168
26.26	167
26.28	189
26.3	179
26.32	167
26.34	174
26.36	182
26.38	182
26.4	176
26.42	159
26.44	174
26.46	167
26.48	177
26.5	176
26.52	172
26.54	153
26.56	162
26.58	162
26.6	188
26.62	198
26.64	196
26.66	197
26.68	208
26.7	213
26.72	190
26.74	210
26.76	273
26.78	248
26.8	266
26.82	259
26.84	263
26.86	289
26.88	297
26.9	301
26.92	329
26.94	339
26.96	391
26.98	424
27	378
27.02	423
27.04	482
27.06	459
27.08	454
27.1	476
27.12	482
27.14	438
27.16	465
27.18	398
27.2	380
27.22	384
27.24	321
27.26	341
27.28	303
27.3	308
27.32	267
27.34	262
27.36	287
27.38	288
27.4	315
27.42	327
27.44	395
27.46	403
27.48	466
27.5	459
27.52	453
27.54	489
27.56	547
27.58	515
27.6	490
27.62	456
27.64	431
27.66	451
27.68	382
27.7	389
27.72	344
27.74	340
27.76	349
27.78	366
27.8	324
27.82	372
27.84	377
27.86	388
27.88	349
27.9	442
27.92	400
27.94	415
27.96	381
27.98	390
28	364
28.02	338
28.04	338
28.06	296
28.08	280
28.1	247
28.12	227
28.14	219
28.16	223
28.18	242
28.2	221
28.22	251
28.24	263
28.26	328
28.28	307
28.3	330
28.32	346
28.34	298
28.36	323
28.38	347
28.4	292
28.42	268
28.44	291
28.46	256
28.48	235
28.5	202
28.52	191
28.54	195
28.56	172
28.58	177
28.6	166
28.62	149
28.64	168
28.66	162
28.68	171
28.7	159
28.72	148
28.74	124
28.76	158
28.78	155
28.8	190
28.82	148
28.84	155
28.86	181
28.88	153
28.9	151
28.92	159
28.94	173
28.96	150
28.98	164
29	179
29.02	190
29.04	177
29.06	145
29.08	184
29.1	200
29.12	231
29.14	228
29.16	265
29.18	254
29.2	291
29.22	303
29.24	351
29.26	401
29.28	392
29.3	493
29.32	462
29.34	528
29.36	507
29.38	549
29.4	522
29.42	485
29.44	510
29.46	464
29.48	394
29.5	373
29.52	354
29.54	304
29.56	275
29.58	239
29.6	221
29.62	223
29.64	234
29.66	202
29.68	192
29.7	189
29.72	215
29.74	173
29.76	173
29.78	178
29.8	210
29.82	164
29.84	155
29.86	161
29.88	158
29.9	162
29.92	167
29.94	165
29.96	164
29.98	175
30	168
30.02	171
30.04	154
30.06	158
30.08	164
30.1	193
30.12	192
30.14	202
30.16	181
30.18	215
30.2	242
30.22	241
30.24	269
30.26	259
30.28	281
30.3	265
30.32	299
30.34	266
30.36	265
30.38	283
30.4	235
30.42	206
30.44	248
30.46	192
30.48	182
30.5	201
30.52	168
30.54	166
30.56	151
30.58	151
30.6	171
30.62	147
30.64	165
30.66	170
30.68	160
30.7	167
30.72	158
30.74	175
30.76	190
30.78	195
30.8	199
30.82	212
30.84	172
30.86	177
30.88	217
30.9	213
30.92	227
30.94	172
30.96	185
30.98	190
31	166
31.02	185
31.04	150
31.06	151
31.08	146
31.1	163
31.12	148
31.14	142
31.16	132
31.18	169
31.2	148
31.22	163
31.24	164
31.26	167
31.28	169
31.3	168
31.32	179
31.34	198
31.36	183
31.38	178
31.4	173
31.42	189
31.44	192
31.46	180
31.48	171
31.5	167
31.52	169
31.54	178
31.56	162
31.58	150
31.6	145
31.62	164
31.64	148
31.66	171
31.68	137
31.7	134
31.72	137
31.74	127
31.76	122
31.78	138
31.8	119
31.82	114
31.84	127
31.86	158
31.88	118
31.9	121
31.92	114
31.94	136
31.96	127
31.98	149
32	154
32.02	141
32.04	141
32.06	136
32.08	150
32.1	184
32.12	141
32.14	162
32.16	157
32.18	160
32.2	150
32.22	186
32.24	180
32.26	182
32.28	215
32.3	187
32.32	205
32.34	223
32.36	219
32.38	218
32.4	241
32.42	247
32.44	272
32.46	270
32.48	271
32.5	265
32.52	270
32.54	242
32.56	237
32.58	233
32.6	223
32.62	228
32.64	218
32.66	196
32.68	201
32.7	230
32.72	172
32.74	211
32.76	212
32.78	220
32.8	216
32.82	193
32.84	217
32.86	201
32.88	157
32.9	180
32.92	175
32.94	182
32.96	180
32.98	179
33	169
33.02	153
33.04	155
33.06	167
33.08	155
33.1	158
33.12	156
33.14	136
33.16	151
33.18	119
33.2	141
33.22	134
33.24	133
33.26	141
33.28	130
33.3	135
33.32	122
33.34	116
33.36	133
33.38	124
33.4	141
33.42	109
33.44	122
33.46	136
33.48	127
33.5	122
33.52	121
33.54	123
33.56	130
33.58	139
33.6	153
33.62	139
33.64	114
33.66	141
33.68	134
33.7	144
33.72	122
33.74	134
33.76	134
33.78	144
33.8	132
33.82	124
33.84	132
33.86	135
33.88	108
33.9	138
33.92	122
33.94	127
33.96	127
33.98	130
34	130
34.02	135
34.04	149
34.06	141
34.08	174
34.1	160
34.12	163
34.14	205
34.16	184
34.18	202
34.2	218
34.22	207
34.24	226
34.26	215
34.28	229
34.3	215
34.32	204
34.34	210
34.36	191
34.38	233
34.4	217
34.42	203
34.44	214
34.46	243
34.48	228
34.5	205
34.52	209
34.54	252
34.56	219
34.58	183
34.6	193
34.62	168
34.64	180
34.66	165
34.68	158
34.7	121
34.72	142
34.74	145
34.76	148
34.78	139
34.8	126
34.82	123
34.84	135
34.86	149
34.88	142
34.9	124
34.92	146
34.94	133
34.96	150
34.98	144
35	146
